1 1:39 2:142 3:45 4:63 5:216 6:216 7:247 8:6222 1:236 2:140 3:45 4:63 5:16 6:228 7:247 8:6223 1:89 2:133 3:45 4:63 5:42 6:229 7:247 8:6224 1:83 2:127 3:45 4:63 5:235 6:233 7:247 8:6225 1:194 2:125 3:45 4:63 5:96 6:238 7:247 8:6226 1:24 2:123 3:45 4:63 5:120 6:247 7:247 8:6227 1:241 2:118 3:45 4:63 5:60 6:247 7:247 8:6228 1:40 2:118 3:45 4:63 5:188 6:233 7:247 8:6229 1:108 2:114 3:45 4:63 5:175 6:213 7:247 8:62210 1:79 2:117 3:45 4:63 5:254 6:177 7:247 8:62211 1:247 2:124 3:45 4:63 5:253 6:159 7:247 8:62212 1:247 2:129 3:45 4:63 5:85 6:104 7:247 8:62213 1:241 2:132 3:45 4:63 5:22 6:66 7:247 8:62214 1:236 2:156 3:45 4:63 5:16 6:234 7:246 8:62215 1:136 2:166 3:45 4:63 5:214 6:199 7:246 8:62216 1:121 2:191 3:45 4:63 5:245 6:115 7:246 8:62217 1:198 2:208 3:45 4:63 5:148 6:86 7:246 8:62218 1:68 2:215 3:45 4:63 5:177 6:59 7:246 8:62219 1:142 2:211 3:45 4:63 5:113 6:13 7:246 8:62220 1:238 2:215 3:45 4:63 5:78 6:1 7:246 8:62221 1:66 2:212 3:45 4:63 5:211 6:253 7:245 8:62222 1:53 2:202 3:45 4:63 5:116 6:248 7:245 8:62223 1:175 2:196 3:45 4:63 5:181 6:240 7:245 8:62224 1:61 2:186 3:45 4:63 5:70 6:254 7:245 8:62225 1:178 2:189 3:45 4:63 5:176 6:248 7:245 8:62226 1:84 2:186 3:45 4:63 5:236 6:237 7:245 8:62227 1:155 2:174 3:45 4:63 5:126 6:229 7:245 8:62228 1:208 2:171 3:45 4:63 5:136 6:216 7:245 8:62229 1:75 2:178 3:45 4:63 5:63 6:217 7:245 8:62230 1:190 2:179 3:45 4:63 5:13 6:220 7:245 8:62231 1:125 2:176 3:45 4:63 5:237 6:219 7:245 8:62232 1:191 2:163 3:45 4:63 5:107 6:210 7:245 8:62233 1:144 2:156 3:45 4:63 5:174 6:209 7:245 8:62234 1:150 2:155 3:45 4:63 5:141 6:213 7:245 8:62235 1:120 2:154 3:45 4:63 5:216 6:222 7:245 8:62236 1:234 2:149 3:45 4:63 5:133 6:234 7:245 8:62237 1:53 2:143 3:45 4:63 5:204 6:241 7:245 8:62238 1:216 2:125 3:45 4:63 5:13 6:252 7:245 8:62239 1:236 2:116 3:45 4:63 5:80 6:8 7:246 8:62240 1:223 2:121 3:45 4:63 5:1 6:17 7:246 8:62241 1:192 2:126 3:45 4:63 5:16 6:63 7:246 8:62242 1:118 2:111 3:45 4:63 5:58 6:76 7:246 8:62243 1:215 2:94 3:45 4:63 5:50 6:97 7:246 8:62244 1:224 2:79 3:45 4:63 5:138 6:160 7:246 8:62245 1:40 2:69 3:45 4:63 5:158 6:189 7:246 8:62246 1:225 2:57 3:45 4:63 5:191 6:210 7:246 8:62247 1:177 2:51 3:45 4:63 5:35 6:226 7:246 8:62248 1:198 2:47 3:45 4:63 5:61 6:245 7:246 8:62249 1:48 2:50 3:45 4:63 5:92 6:4 7:247 8:62250 1:117 2:53 3:45 4:63 5:250 6:21 7:247 8:62251 1:176 2:53 3:45 4:63 5:112 6:38 7:247 8:62252 1:190 2:42 3:45 4:63 5:128 6:52 7:247 8:62253 1:120 2:41 3:45 4:63 5:227 6:74 7:247 8:62254 1:244 2:37 3:45 4:63 5:89 6:85 7:247 8:62255 1:49 2:34 3:45 4:63 5:129 6:81 7:247 8:62256 1:17 2:33 3:45 4:63 5:109 6:66 7:247 8:62257 1:212 2:33 3:45 4:63 5:126 6:62 7:247 8:62258 1:87 2:31 3:45 4:63 5:241 6:57 7:247 8:62259 1:125 2:29 3:45 4:63 5:198 6:50 7:247 8:62260 1:24 2:30 3:45 4:63 5:225 6:46 7:247 8:62261 1:82 2:30 3:45 4:63 5:181 6:42 7:247 8:62262 1:168 2:29 3:45 4:63 5:196 6:38 7:247 8:62263 1:21 2:18 3:45 4:63 5:152 6:28 7:247 8:62264 1:74 2:24 3:45 4:63 5:230 6:24 7:247 8:62265 1:60 2:32 3:45 4:63 5:80 6:29 7:247 8:62266 1:206 2:14 3:45 4:63 5:20 6:26 7:247 8:62267 1:91 2:1 3:45 4:63 5:65 6:43 7:247 8:62268 1:21 2:252 3:44 4:63 5:211 6:59 7:247 8:62269 1:3 2:234 3:44 4:63 5:121 6:62 7:247 8:62270 1:235 2:232 3:44 4:63 5:204 6:61 7:247 8:62271 1:99 2:229 3:44 4:63 5:164 6:87 7:247 8:62272 1:38 2:223 3:44 4:63 5:152 6:94 7:247 8:62273 1:40 2:209 3:44 4:63 5:94 6:86 7:247 8:62274 1:32 2:210 3:44 4:63 5:234 6:80 7:247 8:62275 1:98 2:214 3:44 4:63 5:33 6:88 7:247 8:62276 1:222 2:215 3:44 4:63 5:123 6:94 7:247 8:62277 1:192 2:213 3:44 4:63 5:124 6:93 7:247 8:62278 1:69 2:209 3:44 4:63 5:148 6:86 7:247 8:62279 1:52 2:203 3:44 4:63 5:24 6:70 7:247 8:62280 1:159 2:201 3:44 4:63 5:254 6:61 7:247 8:62281 1:40 2:204 3:44 4:63 5:171 6:55 7:247 8:62282 1:209 2:206 3:44 4:63 5:20 6:53 7:247 8:62283 1:18 2:207 3:44 4:63 5:108 6:34 7:247 8:62284 1:206 2:210 3:44 4:63 5:7 6:13 7:247 8:62285 1:1 2:210 3:44 4:63 5:126 6:11 7:247 8:62286 1:221 2:216 3:44 4:63 5:211 6:12 7:247 8:62287 1:50 2:232 3:44 4:63 5:124 6:7 7:247 8:62288 1:27 2:210 3:44 4:63 5:35 6:253 7:246 8:62289 1:89 2:216 3:44 4:63 5:114 6:7 7:247 8:62290 1:136 2:224 3:44 4:63 5:239 6:21 7:247 8:62291 1:141 2:220 3:44 4:63 5:14 6:33 7:247 8:62292 1:232 2:201 3:44 4:63 5:242 6:36 7:247 8:62293 1:103 2:199 3:44 4:63 5:7 6:41 7:247 8:62294 1:135 2:194 3:44 4:63 5:110 6:51 7:247 8:62295 1:245 2:186 3:44 4:63 5:46 6:56 7:247 8:62296 1:192 2:176 3:44 4:63 5:48 6:57 7:247 8:62297 1:10 2:169 3:44 4:63 5:6 6:56 7:247 8:62298 1:24 2:165 3:44 4:63 5:92 6:62 7:247 8:62299 1:9 2:160 3:44 4:63 5:155 6:77 7:247 8:622100 1:240 2:157 3:44 4:63 5:80 6:89 7:247 8:622101 1:15 2:151 3:44 4:63 5:104 6:98 7:247 8:622102 1:98 2:144 3:44 4:63 5:125 6:97 7:247 8:622103 1:209 2:136 3:44 4:63 5:161 6:92 7:247 8:622104 1:162 2:133 3:44 4:63 5:208 6:77 7:247 8:622105 1:1 2:133 3:44 4:63 5:18 6:69 7:247 8:622106 1:89 2:141 3:44 4:63 5:45 6:61 7:247 8:622107 1:192 2:139 3:44 4:63 5:148 6:52 7:247 8:622108 1:239 2:143 3:44 4:63 5:145 6:15 7:247 8:622109 1:37 2:149 3:44 4:63 5:151 6:245 7:246 8:622110 1:70 2:158 3:44 4:63 5:79 6:219 7:246 8:622111 1:105 2:166 3:44 4:63 5:95 6:193 7:246 8:622112 1:63 2:165 3:44 4:63 5:198 6:175 7:246 8:622113 1:113 2:163 3:44 4:63 5:106 6:158 7:246 8:622114 1:41 2:189 3:44 4:63 5:14 6:123 7:246 8:622115 1:207 2:183 3:44 4:63 5:91 6:72 7:246 8:622116 1:106 2:188 3:44 4:63 5:44 6:56 7:246 8:622117 1:33 2:193 3:44 4:63 5:220 6:47 7:246 8:622118 1:23 2:189 3:44 4:63 5:138 6:39 7:246 8:622119 1:142 2:182 3:44 4:63 5:104 6:21 7:246 8:622120 1:51 2:178 3:44 4:63 5:148 6:3 7:246 8:622121 1:108 2:193 3:44 4:63 5:58 6:234 7:245 8:622122 1:66 2:200 3:44 4:63 5:87 6:223 7:245 8:622123 1:156 2:196 3:44 4:63 5:240 6:187 7:245 8:622124 1:225 2:193 3:44 4:63 5:254 6:174 7:245 8:622125 1:174 2:192 3:44 4:63 5:213 6:168 7:245 8:622126 1:101 2:186 3:44 4:63 5:110 6:171 7:245 8:622127 1:153 2:182 3:44 4:63 5:12 6:160 7:245 8:622128 1:108 2:182 3:44 4:63 5:150 6:130 7:245 8:622129 1:215 2:184 3:44 4:63 5:15 6:110 7:245 8:622130 1:165 2:186 3:44 4:63 5:73 6:91 7:245 8:622131 1:173 2:194 3:44 4:63 5:121 6:55 7:245 8:622132 1:95 2:195 3:44 4:63 5:81 6:29 7:245 8:622133 1:88 2:197 3:44 4:63 5:191 6:16 7:245 8:622134 1:100 2:201 3:44 4:63 5:174 6:4 7:245 8:622135 1:187 2:207 3:44 4:63 5:179 6:250 7:244 8:622136 1:111 2:208 3:44 4:63 5:96 6:252 7:244 8:622137 1:180 2:200 3:44 4:63 5:62 6:0 7:245 8:622138 1:122 2:206 3:44 4:63 5:215 6:242 7:244 8:622139 1:48 2:209 3:44 4:63 5:238 6:248 7:244 8:622140 1:238 2:203 3:44 4:63 5:166 6:19 7:245 8:622141 1:86 2:202 3:44 4:63 5:100 6:52 7:245 8:622142 1:42 2:180 3:44 4:63 5:82 6:122 7:245 8:622143 1:137 2:167 3:44 4:63 5:54 6:155 7:245 8:622144 1:230 2:151 3:44 4:63 5:22 6:216 7:245 8:622145 1:160 2:141 3:44 4:63 5:37 6:252 7:245 8:622146 1:185 2:118 3:44 4:63 5:140 6:63 7:246 8:622147 1:242 2:99 3:44 4:63 5:233 6:120 7:246 8:622148 1:235 2:91 3:44 4:63 5:179 6:148 7:246 8:622149 1:107 2:85 3:44 4:63 5:93 6:177 7:246 8:622150 1:191 2:76 3:44 4:63 5:210 6:206 7:246 8:622151 1:177 2:68 3:44 4:63 5:239 6:207 7:246 8:622152 1:151 2:71 3:44 4:63 5:72 6:199 7:246 8:622153 1:89 2:75 3:44 4:63 5:106 6:194 7:246 8:622154 1:225 2:79 3:44 4:63 5:184 6:184 7:246 8:622155 1:240 2:77 3:44 4:63 5:69 6:143 7:246 8:622156 1:71 2:78 3:44 4:63 5:23 6:119 7:246 8:622157 1:97 2:86 3:44 4:63 5:189 6:103 7:246 8:622158 1:128 2:94 3:44 4:63 5:240 6:100 7:246 8:622159 1:223 2:92 3:44 4:63 5:134 6:102 7:246 8:622160 1:78 2:93 3:44 4:63 5:47 6:91 7:246 8:622161 1:5 2:99 3:44 4:63 5:242 6:81 7:246 8:622162 1:104 2:96 3:44 4:63 5:24 6:80 7:246 8:622163 1:56 2:86 3:44 4:63 5:91 6:78 7:246 8:622164 1:78 2:78 3:44 4:63 5:39 6:97 7:246 8:622165 1:131 2:79 3:44 4:63 5:161 6:125 7:246 8:622166 1:18 2:78 3:44 4:63 5:248 6:150 7:246 8:622167 1:127 2:70 3:44 4:63 5:183 6:164 7:246 8:622168 1:229 2:66 3:44 4:63 5:112 6:162 7:246 8:622169 1:5 2:68 3:44 4:63 5:235 6:161 7:246 8:622170 1:60 2:82 3:44 4:63 5:197 6:187 7:246 8:622171 1:37 2:84 3:44 4:63 5:83 6:208 7:246 8:622172 1:67 2:74 3:44 4:63 5:58 6:231 7:246 8:622173 1:7 2:68 3:44 4:63 5:109 6:243 7:246 8:622174 1:89 2:66 3:44 4:63 5:6 6:3 7:247 8:622175 1:219 2:67 3:44 4:63 5:243 6:12 7:247 8:622176 1:239 2:69 3:44 4:63 5:22 6:11 7:247 8:622177 1:167 2:71 3:44 4:63 5:149 6:2 7:247 8:622178 1:102 2:72 3:44 4:63 5:86 6:244 7:246 8:622179 1:41 2:74 3:44 4:63 5:237 6:233 7:246 8:622180 1:86 2:80 3:44 4:63 5:173 6:215 7:246 8:622181 1:174 2:83 3:44 4:63 5:89 6:208 7:246 8:622182 1:174 2:87 3:44 4:63 5:52 6:196 7:246 8:622183 1:76 2:87 3:44 4:63 5:240 6:186 7:246 8:622184 1:210 2:90 3:44 4:63 5:159 6:172 7:246 8:622185 1:243 2:85 3:44 4:63 5:165 6:150 7:246 8:622186 1:106 2:95 3:44 4:63 5:131 6:137 7:246 8:622187 1:202 2:101 3:44 4:63 5:21 6:130 7:246 8:622188 1:134 2:89 3:44 4:63 5:185 6:118 7:246 8:622189 1:133 2:95 3:44 4:63 5:216 6:128 7:246 8:622190 1:161 2:87 3:44 4:63 5:243 6:149 7:246 8:622191 1:13 2:77 3:44 4:63 5:55 6:148 7:246 8:622192 1:16 2:71 3:44 4:63 5:60 6:153 7:246 8:622193 1:170 2:72 3:44 4:63 5:227 6:163 7:246 8:622194 1:159 2:79 3:44 4:63 5:252 6:176 7:246 8:622195 1:176 2:80 3:44 4:63 5:124 6:192 7:246 8:622196 1:117 2:63 3:44 4:63 5:51 6:209 7:246 8:622197 1:35 2:51 3:44 4:63 5:221 6:216 7:246 8:622198 1:251 2:42 3:44 4:63 5:200 6:227 7:246 8:622199 1:121 2:35 3:44 4:63 5:195 6:240 7:246 8:622200 1:152 2:28 3:44 4:63 5:16 6:246 7:246 8:622201 1:186 2:29 3:44 4:63 5:170 6:216 7:246 8:622202 1:107 2:34 3:44 4:63 5:172 6:207 7:246 8:622203 1:110 2:44 3:44 4:63 5:251 6:188 7:246 8:622204 1:243 2:41 3:44 4:63 5:174 6:179 7:246 8:622205 1:148 2:34 3:44 4:63 5:211 6:143 7:246 8:622206 1:194 2:35 3:44 4:63 5:124 6:128 7:246 8:622207 1:34 2:46 3:44 4:63 5:248 6:117 7:246 8:622208 1:36 2:44 3:44 4:63 5:206 6:111 7:246 8:622209 1:219 2:50 3:44 4:63 5:224 6:94 7:246 8:622210 1:105 2:57 3:44 4:63 5:56 6:81 7:246 8:622211 1:69 2:47 3:44 4:63 5:3 6:72 7:246 8:622212 1:138 2:35 3:44 4:63 5:91 6:62 7:246 8:622213 1:255 2:32 3:44 4:63 5:193 6:60 7:246 8:622214 1:133 2:35 3:44 4:63 5:166 6:76 7:246 8:622215 1:8 2:31 3:44 4:63 5:1 6:97 7:246 8:622216 1:99 2:14 3:44 4:63 5:184 6:105 7:246 8:622217 1:173 2:8 3:44 4:63 5:155 6:109 7:246 8:622218 1:172 2:6 3:44 4:63 5:104 6:124 7:246 8:622219 1:82 2:10 3:44 4:63 5:141 6:135 7:246 8:622220 1:137 2:5 3:44 4:63 5:22 6:144 7:246 8:622221 1:75 2:233 3:43 4:63 5:117 6:152 7:246 8:622222 1:222 2:220 3:43 4:63 5:118 6:148 7:246 8:622223 1:142 2:218 3:43 4:63 5:61 6:147 7:246 8:622224 1:7 2:225 3:43 4:63 5:56 6:137 7:246 8:622225 1:135 2:230 3:43 4:63 5:195 6:118 7:246 8:622226 1:11 2:235 3:43 4:63 5:2 6:53 7:246 8:622227 1:2 2:240 3:43 4:63 5:216 6:10 7:246 8:622228 1:186 2:246 3:43 4:63 5:204 6:229 7:245 8:622229 1:83 2:255 3:43 4:63 5:80 6:162 7:245 8:622230 1:248 2:255 3:43 4:63 5:120 6:128 7:245 8:622231 1:222 2:4 3:44 4:63 5:96 6:98 7:245 8:622232 1:57 2:12 3:44 4:63 5:53 6:44 7:245 8:622233 1:179 2:12 3:44 4:63 5:85 6:20 7:245 8:622234 1:61 2:9 3:44 4:63 5:138 6:253 7:244 8:622235 1:6 2:12 3:44 4:63 5:142 6:234 7:244 8:622236 1:164 2:23 3:44 4:63 5:41 6:222 7:244 8:622237 1:20 2:25 3:44 4:63 5:96 6:211 7:244 8:622238 1:87 2:11 3:44 4:63 5:104 6:181 7:244 8:622239 1:30 2:15 3:44 4:63 5:54 6:187 7:244 8:622240 1:25 2:13 3:44 4:63 5:68 6:205 7:244 8:622241 1:95 2:7 3:44 4:63 5:254 6:214 7:244 8:622242 1:134 2:253 3:43 4:63 5:240 6:219 7:244 8:622243 1:21 2:243 3:43 4:63 5:15 6:222 7:244 8:622244 1:69 2:238 3:43 4:63 5:185 6:228 7:244 8:622245 1:94 2:236 3:43 4:63 5:180 6:238 7:244 8:622246 1:8 2:230 3:43 4:63 5:8 6:246 7:244 8:622247 1:70 2:219 3:43 4:63 5:208 6:234 7:244 8:622248 1:34 2:222 3:43 4:63 5:68 6:234 7:244 8:622249 1:126 2:229 3:43 4:63 5:16 6:238 7:244 8:622250 1:115 2:232 3:43 4:63 5:167 6:240 7:244 8:622251 1:107 2:230 3:43 4:63 5:41 6:240 7:244 8:622252 1:48 2:225 3:43 4:63 5:158 6:227 7:244 8:622253 1:241 2:224 3:43 4:63 5:155 6:222 7:244 8:622254 1:47 2:225 3:43 4:63 5:24 6:235 7:244 8:622255 1:8 2:224 3:43 4:63 5:39 6:244 7:244 8:622256 1:43 2:220 3:43 4:63 5:74 6:251 7:244 8:622257 1:117 2:202 3:43 4:63 5:99 6:14 7:245 8:622258 1:146 2:189 3:43 4:63 5:147 6:34 7:245 8:622259 1:49 2:175 3:43 4:63 5:149 6:61 7:245 8:622260 1:85 2:177 3:43 4:63 5:142 6:88 7:245 8:622261 1:35 2:188 3:43 4:63 5:35 6:119 7:245 8:622262 1:108 2:166 3:43 4:63 5:123 6:159 7:245 8:622263 1:145 2:156 3:43 4:63 5:221 6:182 7:245 8:622264 1:248 2:154 3:43 4:63 5:47 6:225 7:245 8:622265 1:250 2:151 3:43 4:63 5:67 6:12 7:246 8:622266 1:150 2:137 3:43 4:63 5:244 6:41 7:246 8:622267 1:173 2:117 3:43 4:63 5:154 6:83 7:246 8:622268 1:102 2:126 3:43 4:63 5:84 6:159 7:246 8:622269 1:192 2:126 3:43 4:63 5:229 6:200 7:246 8:622270 1:48 2:109 3:43 4:63 5:151 6:246 7:246 8:622271 1:11 2:100 3:43 4:63 5:191 6:3 7:247 8:622272 1:72 2:99 3:43 4:63 5:27 6:44 7:247 8:622273 1:117 2:104 3:43 4:63 5:169 6:57 7:247 8:622274 1:144 2:102 3:43 4:63 5:108 6:63 7:247 8:622275 1:102 2:99 3:43 4:63 5:194 6:56 7:247 8:622276 1:219 2:99 3:43 4:63 5:134 6:47 7:247 8:622277 1:171 2:110 3:43 4:63 5:111 6:50 7:247 8:622278 1:70 2:111 3:43 4:63 5:210 6:46 7:247 8:622279 1:155 2:112 3:43 4:63 5:248 6:22 7:247 8:622280 1:61 2:120 3:43 4:63 5:245 6:19 7:247 8:622281 1:237 2:121 3:43 4:63 5:213 6:19 7:247 8:622282 1:166 2:116 3:43 4:63 5:160 6:16 7:247 8:622283 1:229 2:137 3:43 4:63 5:213 6:9 7:247 8:622284 1:163 2:143 3:43 4:63 5:116 6:11 7:247 8:622285 1:242 2:132 3:43 4:63 5:165 6:13 7:247 8:622286 1:73 2:126 3:43 4:63 5:97 6:15 7:247 8:622287 1:80 2:129 3:43 4:63 5:219 6:32 7:247 8:622288 1:2 2:133 3:43 4:63 5:12 6:75 7:247 8:622289 1:121 2:116 3:43 4:63 5:27 6:101 7:247 8:622290 1:234 2:115 3:43 4:63 5:73 6:120 7:247 8:622291 1:198 2:116 3:43 4:63 5:95 6:145 7:247 8:622292 1:240 2:117 3:43 4:63 5:173 6:164 7:247 8:622293 1:254 2:112 3:43 4:63 5:195 6:188 7:247 8:622294 1:228 2:100 3:43 4:63 5:123 6:228 7:247 8:622295 1:163 2:97 3:43 4:63 5:165 6:248 7:247 8:622296 1:146 2:95 3:43 4:63 5:61 6:7 7:248 8:622297 1:164 2:93 3:43 4:63 5:23 6:12 7:248 8:622298 1:185 2:94 3:43 4:63 5:62 6:11 7:248 8:622299 1:16 2:98 3:43 4:63 5:212 6:7 7:248 8:622300 1:85 2:102 3:43 4:63 5:79 6:2 7:248 8:622